{
  "atoms": {
    "coords": {
      "3d": [
        0.5733391658801177,
        -0.0,
        0.00072338524732764,
        -0.6272861366473572,
        -0.0,
        -0.00029739759253704,
        1.1775732848653777,
        0.9460529633157686,
        0.0012366871419200402,
        1.1775732848653777,
        -0.9460529633157686,
        0.0012366871419200402
      ],
      "3dSets": [
        [
          0.5733391658801177,
          -0.0,
          0.00072338524732764,
          -0.6272861366473572,
          -0.0,
          -0.00029739759253704,
          1.1775732848653777,
          0.9460529633157686,
          0.0012366871419200402,
          1.1775732848653777,
          -0.9460529633157686,
          0.0012366871419200402
        ],
        [
          0.5733510858801177,
          -0.0,
          -0.013314294752672361,
          -0.6272891766473572,
          0.0,
          0.0032306824074629604,
          1.1775262448653776,
          0.9460527233157686,
          0.05687164714192004,
          1.1775263248653778,
          -0.9460527233157686,
          0.05687164714192004
        ],
        [
          0.5733630058801177,
          -0.0,
          -0.02735197475267236,
          -0.6272922166473572,
          0.0,
          0.006758762407462961,
          1.1774792048653777,
          0.9460524833157686,
          0.11250660714192005,
          1.1774793648653776,
          -0.9460524833157686,
          0.11250660714192005
        ],
        [
          0.5733749258801177,
          -0.0,
          -0.04138965475267236,
          -0.6272952566473572,
          0.0,
          0.01028684240746296,
          1.1774321648653776,
          0.9460522433157686,
          0.16814156714192005,
          1.1774324048653777,
          -0.9460522433157686,
          0.16814156714192005
        ],
        [
          0.5733868458801177,
          -0.0,
          -0.055427334752672364,
          -0.6272982966473573,
          0.0,
          0.013814922407462961,
          1.1773851248653777,
          0.9460520033157686,
          0.22377652714192006,
          1.1773854448653778,
          -0.9460520033157686,
          0.22377652714192006
        ],
        [
          0.5733987658801177,
          -0.0,
          -0.06946501475267236,
          -0.6273013366473572,
          0.0,
          0.01734300240746296,
          1.1773380848653776,
          0.9460517633157686,
          0.27941148714192005,
          1.1773384848653776,
          -0.9460517633157686,
          0.27941148714192005
        ],
        [
          0.5733868458801177,
          -0.0,
          -0.055427334752672364,
          -0.6272982966473573,
          0.0,
          0.013814922407462961,
          1.1773851248653777,
          0.9460520033157686,
          0.22377652714192006,
          1.1773854448653778,
          -0.9460520033157686,
          0.22377652714192006
        ],
        [
          0.5733749258801177,
          -0.0,
          -0.04138965475267236,
          -0.6272952566473572,
          0.0,
          0.01028684240746296,
          1.1774321648653776,
          0.9460522433157686,
          0.16814156714192005,
          1.1774324048653777,
          -0.9460522433157686,
          0.16814156714192005
        ],
        [
          0.5733630058801177,
          -0.0,
          -0.02735197475267236,
          -0.6272922166473572,
          0.0,
          0.006758762407462961,
          1.1774792048653777,
          0.9460524833157686,
          0.11250660714192005,
          1.1774793648653776,
          -0.9460524833157686,
          0.11250660714192005
        ],
        [
          0.5733510858801177,
          -0.0,
          -0.013314294752672361,
          -0.6272891766473572,
          0.0,
          0.0032306824074629604,
          1.1775262448653776,
          0.9460527233157686,
          0.05687164714192004,
          1.1775263248653778,
          -0.9460527233157686,
          0.05687164714192004
        ],
        [
          0.5733391658801177,
          -0.0,
          0.00072338524732764,
          -0.6272861366473572,
          0.0,
          -0.00029739759253704,
          1.1775732848653777,
          0.9460529633157686,
          0.0012366871419200402,
          1.1775732848653777,
          -0.9460529633157686,
          0.0012366871419200402
        ],
        [
          0.5733272458801176,
          0.0,
          0.01476106524732764,
          -0.6272830966473573,
          -0.0,
          -0.00382547759253704,
          1.1776203248653778,
          0.9460532033157686,
          -0.054398272858079966,
          1.1776202448653776,
          -0.9460532033157686,
          -0.054398272858079966
        ],
        [
          0.5733153258801177,
          0.0,
          0.02879874524732764,
          -0.6272800566473572,
          -0.0,
          -0.00735355759253704,
          1.1776673648653777,
          0.9460534433157686,
          -0.11003323285807996,
          1.1776672048653778,
          -0.9460534433157686,
          -0.11003323285807996
        ],
        [
          0.5733034058801176,
          0.0,
          0.042836425247327635,
          -0.6272770166473572,
          -0.0,
          -0.01088163759253704,
          1.1777144048653778,
          0.9460536833157686,
          -0.16566819285807996,
          1.1777141648653777,
          -0.9460536833157686,
          -0.16566819285807996
        ],
        [
          0.5732914858801177,
          0.0,
          0.05687410524732764,
          -0.6272739766473572,
          -0.0,
          -0.014409717592537041,
          1.1777614448653777,
          0.9460539233157687,
          -0.22130315285807997,
          1.1777611248653777,
          -0.9460539233157687,
          -0.22130315285807997
        ],
        [
          0.5732795658801176,
          0.0,
          0.07091178524732764,
          -0.6272709366473572,
          -0.0,
          -0.017937797592537042,
          1.1778084848653778,
          0.9460541633157686,
          -0.27693811285807995,
          1.1778080848653778,
          -0.9460541633157686,
          -0.27693811285807995
        ],
        [
          0.5732914858801177,
          0.0,
          0.05687410524732764,
          -0.6272739766473572,
          -0.0,
          -0.014409717592537041,
          1.1777614448653777,
          0.9460539233157687,
          -0.22130315285807997,
          1.1777611248653777,
          -0.9460539233157687,
          -0.22130315285807997
        ],
        [
          0.5733034058801176,
          0.0,
          0.042836425247327635,
          -0.6272770166473572,
          -0.0,
          -0.01088163759253704,
          1.1777144048653778,
          0.9460536833157686,
          -0.16566819285807996,
          1.1777141648653777,
          -0.9460536833157686,
          -0.16566819285807996
        ],
        [
          0.5733153258801177,
          0.0,
          0.02879874524732764,
          -0.6272800566473572,
          -0.0,
          -0.00735355759253704,
          1.1776673648653777,
          0.9460534433157686,
          -0.11003323285807996,
          1.1776672048653778,
          -0.9460534433157686,
          -0.11003323285807996
        ],
        [
          0.5733272458801176,
          0.0,
          0.01476106524732764,
          -0.6272830966473573,
          -0.0,
          -0.00382547759253704,
          1.1776203248653778,
          0.9460532033157686,
          -0.054398272858079966,
          1.1776202448653776,
          -0.9460532033157686,
          -0.054398272858079966
        ],
        [
          0.5733391658801177,
          0.0,
          0.00072338524732764,
          -0.6272861366473572,
          -0.0,
          -0.00029739759253704,
          1.1775732848653777,
          0.9460529633157686,
          0.0012366871419200402,
          1.1775732848653777,
          -0.9460529633157686,
          0.0012366871419200402
        ]
      ]
    },
    "elements": {
      "number": [
        6,
        8,
        1,
        1
      ]
    },
    "forces": [
      0.000298,
      -0.0,
      -0.350942,
      -7.6e-05,
      0.0,
      0.088202,
      -0.001176,
      -6e-06,
      1.390874,
      -0.001174,
      6e-06,
      1.390874
    ],
    "formalCharges": [
      0,
      0,
      0,
      0
    ],
    "layer": [
      0,
      0,
      0,
      0
    ],
    "partialCharges": {
      "Loewdin": [
        0.136796,
        -0.118594,
        -0.009101,
        -0.009101
      ],
      "Mulliken": [
        0.16815,
        -0.220186,
        0.026018,
        0.026018
      ]
    }
  },
  "bonds": {
    "connections": {
      "index": [
        0,
        1,
        0,
        2,
        0,
        3
      ]
    },
    "order": [
      2,
      1,
      1
    ]
  },
  "chemicalJson": 1,
  "layer": {
    "enable": {
      "Ball and Stick": [
        true
      ],
      "Cartoons": [
        true
      ],
      "Close Contacts": [
        false
      ],
      "Crystal Lattice": [
        true
      ],
      "Dipole Moment": [
        false
      ],
      "Force": [
        false
      ],
      "Labels": [
        false
      ],
      "Licorice": [
        false
      ],
      "Non-Covalent": [
        false
      ],
      "QTAIM": [
        false
      ],
      "Surfaces": [
        false
      ],
      "Van der Waals": [
        false
      ],
      "Wireframe": [
        false
      ]
    },
    "locked": [
      false
    ],
    "settings": {
      "Ball and Stick": [
        "true true 0.300000 0.100000 1.000000"
      ],
      "Cartoons": [
        "false false false false false true false"
      ]
    },
    "visible": [
      true
    ]
  },
  "orbitals": {
    "electronCount": 16,
    "energies": [
      -520.6686,
      -279.5963,
      -28.6433,
      -16.9824,
      -13.3667,
      -12.1964,
      -10.9743,
      -7.2554,
      -1.2108,
      1.9965,
      3.804,
      5.5075,
      12.1813,
      12.6281,
      14.8777,
      16.0421,
      16.7541,
      18.1762,
      24.2108
    ],
    "moCoefficients": null
  },
  "properties": {
    "dipoleMoment": [
      2.1476458682446298,
      -6.100191072e-08,
      0.0018264861680766
    ],
    "energies": [
      [
        -114.373924545675
      ],
      [
        -114.376200038111
      ],
      [
        -114.376489455972
      ],
      [
        -114.376585741471
      ],
      [
        -114.376587956411
      ],
      [
        -114.376592042725
      ],
      [
        -114.376594190443
      ]
    ],
    "fileName": "/Users/ghutchis/Calculations/orca/raman/formaldehyde.out",
    "modelView": [
      [
        1.0,
        0.0,
        0.0,
        -0.5752999186515808
      ],
      [
        0.0,
        1.0,
        0.0,
        0.0
      ],
      [
        0.0,
        0.0,
        1.0,
        -13.320724487304688
      ],
      [
        0.0,
        0.0,
        0.0,
        1.0
      ]
    ],
    "projection": [
      [
        1.490114450454712,
        0.0,
        0.0,
        0.0
      ],
      [
        0.0,
        2.0,
        0.0,
        0.0
      ],
      [
        0.0,
        0.0,
        -1.2309468984603882,
        -4.461893558502197
      ],
      [
        0.0,
        0.0,
        -1.0,
        0.0
      ]
    ],
    "totalCharge": 0,
    "totalEnergy": -114.376594190443,
    "totalSpinMultiplicity": 1
  },
  "vibrations": {
    "eigenVectors": [
      [
        0.0,
        0.0,
        0.0,
        0.0,
        0.0,
        0.0,
        0.0,
        0.0,
        0.0,
        0.0,
        0.0,
        0.0,
        0.0,
        0.0,
        0.0,
        0.0,
        0.0,
        0.0,
        0.0,
        0.0,
        0.0,
        0.0,
        0.0,
        0.0
      ],
      [
        0.0,
        0.0,
        0.0,
        0.0,
        0.0,
        0.0,
        0.0,
        0.0,
        0.0,
        0.0,
        0.0,
        0.0,
        0.0,
        0.0,
        0.0,
        0.0,
        0.0,
        0.0,
        0.0,
        0.0,
        0.0,
        0.0,
        0.0,
        0.0
      ],
      [
        0.0,
        0.0,
        0.0,
        0.0,
        0.0,
        0.0,
        0.0,
        0.0,
        0.0,
        0.0,
        0.0,
        0.0,
        0.0,
        0.0,
        0.0,
        0.0,
        0.0,
        0.0,
        0.0,
        0.0,
        0.0,
        0.0,
        0.0,
        0.0
      ],
      [
        0.0,
        0.0,
        0.0,
        0.0,
        0.0,
        0.0,
        0.0,
        0.0,
        0.0,
        0.0,
        0.0,
        0.0,
        0.0,
        0.0,
        0.0,
        0.0,
        0.0,
        0.0,
        0.0,
        0.0,
        0.0,
        0.0,
        0.0,
        0.0
      ],
      [
        0.0,
        0.0,
        0.0,
        0.0,
        0.0,
        0.0,
        0.0,
        0.0,
        0.0,
        0.0,
        0.0,
        0.0,
        0.0,
        0.0,
        0.0,
        0.0,
        0.0,
        0.0,
        0.0,
        0.0,
        0.0,
        0.0,
        0.0,
        0.0
      ],
      [
        0.0,
        0.0,
        0.0,
        0.0,
        0.0,
        0.0,
        0.0,
        0.0,
        0.0,
        0.0,
        0.0,
        0.0,
        0.0,
        0.0,
        0.0,
        0.0,
        0.0,
        0.0,
        0.0,
        0.0,
        0.0,
        0.0,
        0.0,
        0.0
      ],
      [
        0.000149,
        -0.0,
        -0.175471,
        -3.8e-05,
        0.0,
        0.044101,
        -0.000588,
        -3e-06,
        0.695437,
        -0.000587,
        3e-06,
        0.695437,
        0.0,
        0.0,
        0.0,
        0.0,
        0.0,
        0.0,
        0.0,
        0.0,
        0.0,
        0.0,
        0.0,
        0.0
      ],
      [
        -0.0,
        0.149738,
        -0.0,
        -0.0,
        -0.080513,
        0.0,
        0.649199,
        -0.253165,
        0.000552,
        -0.649194,
        -0.253161,
        -0.000552,
        0.0,
        0.0,
        0.0,
        0.0,
        0.0,
        0.0,
        0.0,
        0.0,
        0.0,
        0.0,
        0.0,
        0.0
      ],
      [
        -0.000537,
        0.0,
        -1e-06,
        0.076832,
        -0.0,
        6.6e-05,
        -0.606537,
        0.359385,
        -0.000512,
        -0.606541,
        -0.359387,
        -0.000512,
        0.0,
        0.0,
        0.0,
        0.0,
        0.0,
        0.0,
        0.0,
        0.0,
        0.0,
        0.0,
        0.0,
        0.0
      ],
      [
        0.598287,
        0.0,
        0.000508,
        -0.428037,
        -0.0,
        -0.000364,
        -0.167584,
        0.448702,
        -0.000141,
        -0.167585,
        -0.448703,
        -0.000141,
        0.0,
        0.0,
        0.0,
        0.0,
        0.0,
        0.0,
        0.0,
        0.0,
        0.0,
        0.0,
        0.0,
        0.0
      ],
      [
        -0.059886,
        -0.0,
        -5.1e-05,
        -0.000374,
        -0.0,
        -0.0,
        0.359762,
        0.607274,
        0.000306,
        0.359759,
        -0.60727,
        0.000306,
        0.0,
        0.0,
        0.0,
        0.0,
        0.0,
        0.0,
        0.0,
        0.0,
        0.0,
        0.0,
        0.0,
        0.0
      ],
      [
        0.0,
        -0.101262,
        0.0,
        0.0,
        0.000837,
        -0.0,
        0.37265,
        0.596658,
        0.000317,
        -0.372653,
        0.596662,
        -0.000317,
        0.0,
        0.0,
        0.0,
        0.0,
        0.0,
        0.0,
        0.0,
        0.0,
        0.0,
        0.0,
        0.0,
        0.0
      ]
    ],
    "frequencies": [
      0.0,
      0.0,
      0.0,
      0.0,
      0.0,
      0.0,
      1188.7,
      1262.33,
      1527.14,
      1866.01,
      2863.5,
      2924.26
    ],
    "intensities": [
      0.0,
      0.0,
      0.0,
      0.0,
      0.0,
      0.0,
      1.42,
      13.36,
      5.93,
      112.35,
      60.89,
      162.27
    ],
    "modes": [
      1,
      2,
      3,
      4,
      5,
      6,
      7,
      8,
      9,
      10,
      11,
      12
    ],
    "ramanIntensities": [
      0.0,
      0.0,
      0.0,
      0.0,
      0.0,
      0.0,
      1.419718,
      7.714586,
      14.985023,
      4.354062,
      191.015852,
      97.95527
    ]
  }
}